"Time (s)","X (m/s^2)","Y (m/s^2)","Z (m/s^2)"
1.668499997E-3,2.529739380E-2,9.401050415E0,2.806364136E0
1.169250000E-2,-1.053808594E-1,9.442065125E0,2.800526276E0
2.171650000E-2,-2.140548706E-1,9.399852905E0,2.725532227E0
3.174050000E-2,-2.914439392E-1,9.356293488E0,2.671494598E0
4.176450000E-2,-2.850073242E-1,9.378447418E0,2.646496582E0
5.178850000E-2,-2.643502808E-1,9.401200104E0,2.605781250E0
6.181150000E-2,-1.869612122E-1,9.414821777E0,2.633773041E0
7.183550000E-2,-1.110690308E-1,9.387279053E0,2.669099579E0
8.185950000E-2,-3.487747192E-2,9.385482788E0,2.714305573E0
9.188350000E-2,3.382965088E-2,9.432634735E0,2.798430634E0
1.019075000E-1,6.586303711E-2,9.427245941E0,2.837798767E0
1.119315000E-1,6.930587769E-2,9.388027496E0,2.865191803E0
1.219555000E-1,5.284011841E-2,9.413324890E0,2.877017212E0
1.319795000E-1,5.987548828E-3,9.429491272E0,2.875670013E0
1.420035000E-1,-4.849914551E-2,9.406588898E0,2.843486938E0
1.520265000E-1,-7.828720093E-2,9.405092010E0,2.771636353E0
1.620505000E-1,-9.101074219E-2,9.396859131E0,2.714604950E0
1.720745000E-1,-9.624984741E-2,9.397008820E0,2.622247009E0
1.820985000E-1,-8.113128662E-2,9.395511932E0,2.566413116E0
1.921225000E-1,-3.891906738E-2,9.404493256E0,2.549198914E0
2.021465000E-1,7.035369873E-3,9.408834229E0,2.582280121E0
2.121705000E-1,5.493576050E-2,9.397308197E0,2.641107788E0
2.221945000E-1,9.116043091E-2,9.415570221E0,2.709814911E0
2.322185000E-1,1.007405090E-1,9.429640961E0,2.804867249E0
2.422415000E-1,1.124162292E-1,9.435179443E0,2.878663788E0
2.522655000E-1,9.400451660E-2,9.420659637E0,2.927162933E0
2.622895000E-1,5.373825073E-2,9.402547302E0,2.924169159E0
2.723135000E-1,2.290237427E-2,9.420509949E0,2.903362427E0
2.823375000E-1,-1.347198486E-2,9.431137848E0,2.829865265E0
2.923610000E-1,-2.814147949E-2,9.429940338E0,2.743644562E0
3.023850000E-1,-4.730163574E-2,9.387129364E0,2.652484131E0
3.124090000E-1,-3.442840576E-2,9.403295746E0,2.561323700E0
3.224330000E-1,-2.140548706E-2,9.411079559E0,2.508782959E0
3.324560000E-1,-1.481918335E-2,9.384135590E0,2.484383698E0
3.424800000E-1,1.886077881E-2,9.383237457E0,2.498155060E0
3.525040000E-1,3.652404785E-2,9.391470337E0,2.566113739E0
3.625280000E-1,6.526428223E-2,9.420509949E0,2.691103821E0
3.725520000E-1,1.073268127E-1,9.442214813E0,2.803220673E0
3.825760000E-1,1.044827271E-1,9.410929871E0,2.863245850E0
3.926000000E-1,1.124162292E-1,9.429940338E0,2.901566162E0
4.026240000E-1,7.574249268E-2,9.423803101E0,2.934647369E0
4.126480000E-1,3.936813354E-2,9.444759521E0,2.922672272E0
4.226720000E-1,9.280700684E-3,9.416168976E0,2.833457794E0
4.326950000E-1,-8.816665649E-2,9.405840454E0,2.777923279E0
4.427190000E-1,-1.299298096E-1,9.397008820E0,2.671494598E0
4.527430000E-1,-1.529818726E-1,9.382938080E0,2.605930939E0
4.627670000E-1,-2.019300842E-1,9.389225006E0,2.559228058E0
4.727910000E-1,-1.230441284E-1,9.413324890E0,2.558180237E0
4.828150000E-1,-1.263372803E-1,9.405690765E0,2.572250977E0
4.928390000E-1,-5.942642212E-2,9.372010803E0,2.633323975E0
5.028630000E-1,-5.403762817E-2,9.378597107E0,2.702779541E0
5.128870000E-1,-2.859054565E-2,9.426796875E0,2.816692657E0
5.229100000E-1,-5.074447632E-2,9.408983917E0,2.872376862E0
5.329340000E-1,-6.735992432E-2,9.407936096E0,2.918331299E0
5.429580000E-1,-9.160949707E-2,9.399403839E0,2.923869781E0
5.529820000E-1,-1.366658020E-1,9.396559753E0,2.931354218E0
5.630060000E-1,-1.857637024E-1,9.410480804E0,2.877316589E0
5.730300000E-1,-2.353106689E-1,9.383536835E0,2.817141724E0
5.830540000E-1,-2.639012146E-1,9.389075317E0,2.748135223E0
5.930780000E-1,-2.697390747E-1,9.376800842E0,2.707419891E0
6.031020000E-1,-2.624043274E-1,9.369017029E0,2.685116272E0
6.131250000E-1,-2.387535095E-1,9.369017029E0,2.678230591E0
6.231490000E-1,-1.561253357E-1,9.384584656E0,2.697989502E0
6.331730000E-1,-7.319778442E-2,9.391919403E0,2.748434601E0
6.431970000E-1,-1.601669312E-2,9.387428741E0,2.827021179E0
6.532210000E-1,1.152603149E-2,9.398056641E0,2.883902893E0
6.632450000E-1,-6.586303711E-3,9.413474579E0,2.950065308E0
6.732690000E-1,-9.535171509E-2,9.402696991E0,2.931803284E0
6.832930000E-1,-1.508862305E-1,9.376651154E0,2.904559937E0
6.933170000E-1,-2.192939758E-1,9.389973450E0,2.900817719E0
7.033400000E-1,-2.689906311E-1,9.374405823E0,2.863096161E0
7.133640000E-1,-2.573149109E-1,9.386231232E0,2.812052307E0
7.233880000E-1,-2.317181396E-1,9.375603333E0,2.807411957E0
7.334120000E-1,-1.703457642E-1,9.338929596E0,2.780467987E0
7.434360000E-1,-7.229965210E-2,9.366172943E0,2.775228882E0
7.534600000E-1,1.107696533E-2,9.394464111E0,2.792143707E0
7.634840000E-1,7.933502197E-2,9.398805084E0,2.798580322E0
7.735080000E-1,1.136137390E-1,9.395960999E0,2.811752930E0
7.835320000E-1,1.571731567E-1,9.407786407E0,2.853665771E0
7.935550000E-1,1.550775146E-1,9.412277069E0,2.851420441E0
8.035790000E-1,1.288819885E-1,9.397158508E0,2.814447327E0
8.136030000E-1,7.379653931E-2,9.389674072E0,2.778821411E0
8.236270000E-1,-4.939727783E-3,9.384434967E0,2.737058258E0
8.336510000E-1,-1.191522217E-1,9.370813293E0,2.665357361E0
8.436750000E-1,-2.080673218E-1,9.353748779E0,2.591560822E0
8.536990000E-1,-3.219804382E-1,9.331594849E0,2.554138641E0
8.637230000E-1,-3.252735901E-1,9.341923370E0,2.592159576E0
8.737470000E-1,-2.137554932E-1,9.381291504E0,2.749183044E0
8.837700000E-1,-1.601669312E-2,9.399104462E0,2.957250366E0
8.937940000E-1,1.700463867E-1,9.411079559E0,3.167263641E0
9.038180000E-1,2.736309814E-1,9.427695007E0,3.227288818E0
9.138420000E-1,1.916015625E-1,9.386829987E0,3.143014069E0
9.238660000E-1,-5.673202515E-2,9.358987885E0,2.934797058E0
9.338900000E-1,-2.950364685E-1,9.386680298E0,2.701582031E0
9.439140000E-1,-4.378395081E-1,9.373058624E0,2.583926697E0
9.539380000E-1,-3.055146790E-1,9.357640686E0,2.692451019E0
9.639620000E-1,-9.699829102E-2,9.370214539E0,2.889591064E0
9.739850000E-1,6.825805664E-2,9.366023254E0,3.003204803E0
9.840090000E-1,1.978884888E-1,9.351204071E0,3.081042938E0
9.940330000E-1,1.947450256E-1,9.431437225E0,3.084635468E0
1.004057000E0,1.053808594E-1,9.436676331E0,2.964884491E0
1.014081000E0,1.586700439E-2,9.382638702E0,2.787653046E0
1.024105000E0,-2.185455322E-2,9.362430725E0,2.624492340E0
1.034129000E0,1.930984497E-2,9.337732086E0,2.518662415E0
1.044153000E0,3.772155762E-2,9.367669830E0,2.474354553E0
1.054177000E0,4.775070190E-2,9.403894501E0,2.507435760E0
1.064200000E0,9.789642334E-2,9.393715668E0,2.597847748E0
1.074224000E0,1.737886047E-1,9.360933838E0,2.719993744E0
1.084248000E0,2.350112915E-1,9.405690765E0,2.858755188E0
1.094272000E0,2.501298523E-1,9.438771973E0,2.970422974E0
1.104296000E0,2.618055725E-1,9.448352051E0,3.024460602E0
1.114320000E0,2.152523804E-1,9.444609833E0,3.004851379E0
1.124344000E0,1.550775146E-1,9.403295746E0,2.935844879E0
1.134368000E0,6.316864014E-2,9.391320648E0,2.815644836E0
1.144391000E0,-3.802093506E-2,9.398805084E0,2.909799042E0
1.154415000E0,-3.861968994E-2,9.599387970E0,2.780318298E0
1.164439000E0,-8.442443848E-2,9.237590332E0,2.709066467E0
1.174463000E0,-1.255888367E-1,9.326206055E0,2.501298523E0
1.184487000E0,-1.260379028E-1,9.432934113E0,2.485431519E0
1.194511000E0,-9.580078125E-2,9.299561462E0,2.502795410E0
1.204535000E0,-4.685256958E-2,9.418713684E0,2.354004822E0
1.214559000E0,-3.188369751E-2,9.403894501E0,2.368973694E0
1.224583000E0,3.203338623E-2,9.347910919E0,2.460583191E0
1.234607000E0,1.857637024E-1,9.445807343E0,2.727029114E0
1.244630000E0,3.656895447E-1,9.456285553E0,3.027005310E0
1.254654000E0,4.507127380E-1,9.452693024E0,3.275488586E0
1.264678000E0,4.658312988E-1,9.492061157E0,3.459156647E0
1.274702000E0,3.623963928E-1,9.457033997E0,3.237617340E0
1.284726000E0,2.357597351E-1,9.381141815E0,3.010539551E0
1.294750750E0,7.289840698E-2,9.442364502E0,2.668351135E0
1.304774750E0,-4.370910645E-2,9.376052399E0,2.331252136E0
1.314798750E0,-1.613644409E-1,9.380992126E0,2.266885986E0
1.324821750E0,-1.233435059E-1,9.394913177E0,2.166744232E0
1.334845750E0,-1.281335449E-1,9.307494965E0,2.232307892E0
1.344869750E0,-8.068222046E-2,9.496551819E0,2.480192413E0
1.354893750E0,-4.355941772E-2,9.433981934E0,2.638862457E0
1.364917750E0,8.816665649E-2,9.411229248E0,2.923570404E0
1.374941750E0,1.219963074E-1,9.321266327E0,3.079246674E0
1.384965750E0,8.008346558E-2,9.408534851E0,3.148402863E0
1.394989750E0,-2.395019531E-3,9.522747345E0,3.042123871E0
1.405013750E0,-7.963439941E-2,9.506281586E0,2.846331024E0
1.415036750E0,-1.712438965E-1,9.356293488E0,2.661764832E0
1.425060750E0,-2.396516418E-1,9.347611542E0,2.530787201E0
1.435084750E0,-1.832189941E-1,9.387428741E0,2.492167511E0
1.445108750E0,-1.272354126E-2,9.472751312E0,2.412682800E0
1.455132750E0,1.366658020E-1,9.376202087E0,2.658321991E0
1.465156750E0,3.097059631E-1,9.550589447E0,2.799179077E0
1.475180750E0,3.800596619E-1,9.399104462E0,2.768792267E0
1.485204750E0,3.709286499E-1,9.311835938E0,2.811004486E0
1.495228750E0,2.956352234E-1,9.438322906E0,2.835703125E0
1.505251750E0,1.887574768E-1,9.468560028E0,2.710713043E0
1.515275750E0,5.568420410E-2,9.467212830E0,2.662064209E0
1.525299750E0,-6.556365967E-2,9.440568237E0,2.587219849E0
1.535323750E0,-1.270857239E-1,9.300609283E0,2.478994904E0
1.545347750E0,-1.803749084E-1,9.450747070E0,2.607128448E0
1.555371750E0,-2.011816406E-1,9.473799133E0,2.689157867E0
1.565395750E0,-1.962419128E-1,9.403744812E0,2.700234833E0
1.575419750E0,-1.869612122E-1,9.386081543E0,2.780318298E0
1.585443750E0,-1.522334290E-1,9.353449402E0,2.790048065E0
1.595466750E0,-1.326242065E-1,9.423204346E0,2.782863007E0
1.605490750E0,-1.287322998E-1,9.453441467E0,2.785258026E0
1.615514750E0,-8.831634521E-2,9.384285278E0,2.757864990E0
1.625538750E0,-9.280700684E-3,9.416917419E0,2.729723511E0
1.635562750E0,8.457412720E-2,9.399403839E0,2.661914520E0
1.645586750E0,1.538800049E-1,9.397008820E0,2.616109772E0
1.655610750E0,2.308200073E-1,9.453591156E0,2.623294830E0
1.665634750E0,2.710862732E-1,9.443562012E0,2.611170044E0
1.675657750E0,2.167492676E-1,9.411528625E0,2.606529694E0
1.685681750E0,1.715432739E-1,9.392218781E0,2.634072418E0
1.695705750E0,7.649093628E-2,9.407187653E0,2.675685883E0
1.705729750E0,-4.101470947E-2,9.463021545E0,2.726430359E0
1.715753750E0,-1.288819885E-1,9.443861389E0,2.736010437E0
1.725777750E0,-2.282752991E-1,9.403445435E0,2.723436584E0
1.735801750E0,-2.984793091E-1,9.376950531E0,2.735711060E0
1.745825750E0,-2.739303589E-1,9.427994385E0,2.765948181E0
1.755849750E0,-2.463876343E-1,9.420210571E0,2.743345184E0
1.765872750E0,-2.049238586E-1,9.394164734E0,2.723137207E0
1.775896750E0,-1.618135071E-1,9.381890259E0,2.727927246E0
1.785920750E0,-6.885681152E-2,9.403445435E0,2.704725494E0
1.795944750E0,4.191284180E-3,9.420659637E0,2.680326233E0
1.805968750E0,4.999603271E-2,9.398505707E0,2.667602692E0
1.815992750E0,8.951385498E-2,9.399254150E0,2.677332458E0
1.826016750E0,6.406677246E-2,9.422605591E0,2.706970825E0
1.836040750E0,2.559677124E-2,9.420509949E0,2.716700592E0
1.846064750E0,-4.071533203E-2,9.391620026E0,2.717449036E0
1.856087750E0,-8.292755127E-2,9.416618042E0,2.723586273E0
1.866111750E0,-1.263372803E-1,9.422605591E0,2.725532227E0
1.876135750E0,-1.567240906E-1,9.404493256E0,2.704875183E0
1.886159750E0,-1.799258423E-1,9.390272827E0,2.690804443E0
1.896183750E0,-1.944456482E-1,9.378447418E0,2.703827362E0
1.906207750E0,-1.809736633E-1,9.397757263E0,2.691702576E0
1.916231750E0,-1.740879822E-1,9.403595123E0,2.694846039E0
1.926255750E0,-1.432521057E-1,9.389374695E0,2.687810669E0
1.936278750E0,-1.022373962E-1,9.413175201E0,2.698139191E0
1.946302750E0,-2.814147949E-2,9.427994385E0,2.723586273E0
1.956326750E0,3.547622681E-2,9.418264618E0,2.744842072E0
1.966350750E0,1.031355286E-1,9.418264618E0,2.774630127E0
1.976374750E0,1.538800049E-1,9.388476563E0,2.722538452E0
1.986398750E0,1.179547119E-1,9.375004578E0,2.689457245E0
1.996422750E0,8.382568359E-2,9.417815552E0,2.694247284E0
2.006446750E0,5.029541016E-2,9.470655670E0,2.733166351E0
2.016470750E0,2.544708252E-2,9.456135864E0,2.761158142E0
2.026493750E0,-9.729766846E-3,9.408834229E0,2.812052307E0
2.036517750E0,-8.143066406E-2,9.365274811E0,2.821482697E0
2.046541750E0,-1.281335449E-1,9.390272827E0,2.830913086E0
2.056565750E0,-1.689985657E-1,9.404343567E0,2.780617676E0
2.066589750E0,-1.549278259E-1,9.436376953E0,2.688110046E0
2.076613750E0,-1.300794983E-1,9.409283295E0,2.556833038E0
2.086637750E0,-7.035369873E-2,9.374705200E0,2.358345795E0
2.096661750E0,5.508544922E-2,9.383536835E0,2.357747040E0
2.106685750E0,1.847158813E-1,9.482780457E0,2.450104980E0
2.116708750E0,2.974314880E-1,9.483379211E0,2.572700043E0
2.126732750E0,3.549119568E-1,9.434281311E0,2.798131256E0
2.136756750E0,3.348536682E-1,9.394464111E0,2.942730560E0
2.146780750E0,2.591111755E-1,9.360035706E0,3.070415039E0
2.156804750E0,1.336720276E-1,9.382788391E0,3.167263641E0
2.166828750E0,-3.891906738E-3,9.486822052E0,3.154240723E0
2.176852750E0,-1.444496155E-1,9.384734344E0,2.945724335E0
2.186876750E0,-2.517764282E-1,9.400751038E0,2.744542694E0
2.196899750E0,-2.767744446E-1,9.372459869E0,2.517913971E0
2.206923750E0,-2.630030823E-1,9.392667847E0,2.376009064E0
2.216947750E0,-1.884580994E-1,9.451345825E0,2.358944550E0
2.226971750E0,-6.017486572E-2,9.464219055E0,2.396516418E0
2.236995750E0,3.397933960E-2,9.419611816E0,2.426903229E0
2.247019750E0,1.442999268E-1,9.385931854E0,2.506837006E0
2.257043750E0,1.999841309E-1,9.420659637E0,2.637066193E0
2.267067750E0,2.344125366E-1,9.373358002E0,2.714006195E0
2.277091750E0,1.922003174E-1,9.423503723E0,2.811752930E0
2.287114750E0,1.134640503E-1,9.475745087E0,2.930456085E0
2.297138000E0,-6.436614990E-3,9.441616058E0,2.958447876E0
2.307162000E0,-1.457968140E-1,9.369915161E0,2.940784607E0
2.317186000E0,-2.445913696E-1,9.356443176E0,2.884801025E0
2.327210000E0,-3.242257690E-1,9.375902710E0,2.829715576E0
2.337234000E0,-3.716770935E-1,9.427245941E0,2.758164368E0
2.347258000E0,-3.751199341E-1,9.420809326E0,2.707569580E0
2.357282000E0,-3.486250305E-1,9.392069092E0,2.640958099E0
2.367306000E0,-2.634521484E-1,9.389823761E0,2.627486115E0
2.377329000E0,-1.549278259E-1,9.391021271E0,2.681523743E0
2.387353000E0,2.020797729E-2,9.367969208E0,2.710413666E0
2.397377000E0,1.887574768E-1,9.436227264E0,2.710713043E0
2.407401000E0,2.579136658E-1,9.431137848E0,2.707120514E0
2.417425000E0,2.456391907E-1,9.357940063E0,2.693947906E0
2.427449000E0,1.314266968E-1,9.404044189E0,2.737058258E0
2.437473000E0,-2.335144043E-2,9.394913177E0,2.747985535E0
2.447497000E0,-1.869612122E-1,9.406139832E0,2.742147675E0
2.457520000E0,-3.204835510E-1,9.422605591E0,2.752775574E0
2.467544000E0,-3.999682617E-1,9.388775940E0,2.732417908E0
2.477568000E0,-4.272116089E-1,9.351054382E0,2.711311798E0
2.487592000E0,-3.790118408E-1,9.389374695E0,2.789299622E0
2.497616000E0,-2.665956116E-1,9.409133606E0,2.874622192E0
2.507640000E0,-1.484912109E-1,9.382788391E0,2.901865540E0
2.517664000E0,-1.377136230E-2,9.352251892E0,2.895279236E0
2.527688000E0,8.891510010E-2,9.358239441E0,2.896776123E0
2.537711000E0,1.384620667E-1,9.403146057E0,2.916385345E0
2.547735000E0,1.339714050E-1,9.400601349E0,2.903063049E0
2.557759000E0,6.107299805E-2,9.387428741E0,2.843936005E0
2.567783000E0,-3.053649902E-2,9.383836212E0,2.814297638E0
2.577807000E0,-1.475930786E-1,9.389973450E0,2.819087677E0
2.587831000E0,-2.281256104E-1,9.395062866E0,2.828218689E0
2.597855000E0,-2.859054565E-1,9.377549286E0,2.828667755E0
2.607879000E0,-3.013233948E-1,9.358838196E0,2.801574097E0
2.617903000E0,-2.817141724E-1,9.352551270E0,2.784060516E0
2.627926000E0,-2.034269714E-1,9.366472321E0,2.803520050E0
2.637950000E0,-1.056802368E-1,9.368118896E0,2.807861023E0
2.647974000E0,1.481918335E-2,9.375154266E0,2.808010712E0
2.657998000E0,1.210981750E-1,9.400002594E0,2.791095886E0
2.668022000E0,1.654060364E-1,9.394015045E0,2.785707092E0
2.678046000E0,1.600172424E-1,9.371262360E0,2.787054291E0
2.688070000E0,1.492396545E-1,9.406588898E0,2.813698883E0
2.698094000E0,7.544311523E-2,9.403595123E0,2.847827911E0
2.708117000E0,-2.380050659E-2,9.378896484E0,2.886746979E0
2.718141000E0,-1.170565796E-1,9.364975433E0,2.910697174E0
2.728165000E0,-1.836680603E-1,9.359287262E0,2.935246124E0
2.738189000E0,-2.104623413E-1,9.354946289E0,2.899470520E0
2.748213000E0,-1.922003174E-1,9.353599091E0,2.861898651E0
2.758237000E0,-1.451980591E-1,9.364226990E0,2.843936005E0
2.768261000E0,-6.676116943E-2,9.364376678E0,2.823278961E0
2.778285000E0,1.437011719E-2,9.366172943E0,2.812501373E0
2.788309000E0,7.484436035E-2,9.372609558E0,2.827320557E0
2.798332000E0,1.489402771E-1,9.367370453E0,2.840193787E0
2.808356000E0,1.987866211E-1,9.386829987E0,2.845881958E0
2.818380000E0,2.200424194E-1,9.402996368E0,2.843786316E0
2.828404000E0,2.134561157E-1,9.391620026E0,2.875220947E0
2.838428000E0,1.752854919E-1,9.405690765E0,2.883902893E0
2.848452000E0,1.146615601E-1,9.375603333E0,2.881058807E0
2.858476000E0,6.152206421E-2,9.386231232E0,2.881058807E0
2.868500000E0,2.395019531E-3,9.378148041E0,2.870730286E0
2.878523000E0,-3.906875610E-2,9.373956757E0,2.861150208E0
2.888547000E0,-4.894821167E-2,9.353748779E0,2.839295654E0
2.898571000E0,-4.101470947E-2,9.363777924E0,2.828667755E0
2.908595000E0,-2.844085693E-3,9.365274811E0,2.837649078E0
2.918619000E0,3.562591553E-2,9.386979675E0,2.850073242E0
2.928643000E0,7.439529419E-2,9.383237457E0,2.879412231E0
2.938667000E0,1.258882141E-1,9.373507690E0,2.895129547E0
2.948691000E0,1.544787598E-1,9.376052399E0,2.902613983E0
2.958715000E0,1.540296936E-1,9.365574188E0,2.913241882E0
2.968738000E0,1.507365417E-1,9.377399597E0,2.878514099E0
2.978762000E0,9.939331055E-2,9.381590881E0,2.859653320E0
2.988786000E0,8.547225952E-2,9.387578430E0,2.819985809E0
2.998810000E0,6.541397095E-2,9.389823761E0,2.822530518E0
3.008834000E0,6.242019653E-2,9.373058624E0,2.788401489E0
3.018858000E0,8.412506104E-2,9.365574188E0,2.780018921E0
3.028882000E0,1.133143616E-1,9.380093994E0,2.810854797E0
3.038906000E0,1.257385254E-1,9.386380920E0,2.821033630E0
3.048929000E0,1.448986816E-1,9.388326874E0,2.818788300E0
3.058953000E0,1.213975525E-1,9.390721893E0,2.824326782E0
3.068977000E0,9.595046997E-2,9.367969208E0,2.815794525E0
3.079001000E0,9.999206543E-2,9.370064850E0,2.783312073E0
3.089025000E0,6.915618896E-2,9.378297729E0,2.784659271E0
3.099049000E0,6.855743408E-2,9.399703217E0,2.791245575E0
3.109073000E0,7.379653931E-2,9.402846680E0,2.814597015E0
3.119097000E0,8.517288208E-2,9.369765472E0,2.811603241E0
3.129121000E0,8.936416626E-2,9.366771698E0,2.820434875E0
3.139144000E0,8.996292114E-2,9.381441193E0,2.834505615E0
3.149168000E0,9.131011963E-2,9.400900726E0,2.821632385E0
3.159192000E0,1.008901978E-1,9.390871582E0,2.834355927E0
3.169216000E0,1.016386414E-1,9.393565979E0,2.824476471E0
3.179240000E0,8.068222046E-2,9.389374695E0,2.801723785E0
3.189264000E0,8.607101440E-2,9.371412048E0,2.801873474E0
3.199288000E0,9.550140381E-2,9.391470337E0,2.814147949E0
3.209312000E0,1.088237000E-1,9.389973450E0,2.829266510E0
3.219335000E0,1.395098877E-1,9.379794617E0,2.847977600E0
3.229359000E0,1.366658020E-1,9.381590881E0,2.855012970E0
3.239383000E0,1.357676697E-1,9.386081543E0,2.831960907E0
3.249407000E0,1.103205872E-1,9.392817535E0,2.817141724E0
3.259431000E0,1.050814819E-1,9.388775940E0,2.793041840E0
3.269455000E0,1.017883301E-1,9.389674072E0,2.784509583E0
3.279479000E0,1.080752563E-1,9.367819519E0,2.762355652E0
3.289503000E0,1.161584473E-1,9.385782166E0,2.759212189E0
3.299526667E0,1.127156067E-1,9.400301971E0,2.775827637E0
3.309549667E0,1.139131165E-1,9.397308197E0,2.793790283E0
3.319573667E0,1.389111328E-1,9.401948547E0,2.809507599E0
3.329597667E0,1.504371643E-1,9.396260376E0,2.832859039E0
3.339621667E0,1.516346741E-1,9.398505707E0,2.860252075E0
3.349645667E0,1.245410156E-1,9.394763489E0,2.856958923E0
3.359669667E0,1.139131165E-1,9.398206329E0,2.834206238E0
3.369693667E0,1.130149841E-1,9.383387146E0,2.799628143E0
3.379717667E0,9.086105347E-2,9.384734344E0,2.755020905E0
3.389740667E0,6.870712280E-2,9.383686523E0,2.728825378E0
3.399764667E0,5.523513794E-2,9.383836212E0,2.733016663E0
3.409788667E0,3.457809448E-2,9.390721893E0,2.739153900E0
3.419812667E0,3.622467041E-2,9.385333099E0,2.739004211E0
3.429836667E0,6.062393188E-2,9.376651154E0,2.770887909E0
3.439860667E0,1.242416382E-1,9.382489014E0,2.811603241E0
3.449884667E0,1.851649475E-1,9.404792633E0,2.842738495E0
