"Time (s)","X (rad/s)","Y (rad/s)","Z (rad/s)"
1.006500039E-3,-4.250427186E-1,3.881238699E-1,5.194336176E-1
1.103050000E-2,-3.573856354E-1,3.261052370E-1,7.667262554E-1
2.105550002E-2,-2.358798832E-1,4.805723429E-1,1.073316336E0
3.107950004E-2,-1.280817837E-1,8.580525517E-1,1.413989782E0
4.110350000E-2,-7.893706858E-2,1.375764608E0,1.791496158E0
5.112750002E-2,-8.971914649E-2,1.936848760E0,2.017207146E0
6.115150003E-2,-8.635316789E-2,2.245049477E0,2.012633085E0
7.117650000E-2,-3.679200634E-2,2.330313921E0,1.863164425E0
8.120050002E-2,6.843630970E-2,2.297740221E0,1.606428742E0
9.122450004E-2,2.065550238E-1,2.267276287E0,1.311834574E0
1.012485000E-1,3.495590985E-1,2.269103527E0,1.065023303E0
1.112725000E-1,4.828827977E-1,2.246524811E0,8.605418205E-1
1.212975000E-1,5.960695148E-1,2.140144587E0,6.876980662E-1
1.313215000E-1,6.908090711E-1,1.915312052E0,5.274673700E-1
1.413455000E-1,7.934290171E-1,1.720713735E0,3.761139512E-1
1.513695000E-1,9.038947821E-1,1.500035763E0,2.357539088E-1
1.613935000E-1,1.023467302E0,1.090746164E0,4.344194382E-2
1.714185000E-1,1.185946226E0,9.639264345E-1,-5.537011847E-2
1.814425000E-1,1.301179767E0,4.910255075E-1,-2.543300390E-1
1.914665000E-1,1.492016315E0,1.309488416E-1,-5.034632087E-1
2.014905000E-1,1.683957934E0,-1.790444702E-1,-7.196912169E-1
2.115145000E-1,1.804836750E0,-4.969086945E-1,-9.654359818E-1
2.215385000E-1,1.806018591E0,-7.544292212E-1,-1.201217651E0
2.315635000E-1,1.662946939E0,-8.087382913E-1,-1.361002207E0
2.415875000E-1,1.386258245E0,-7.338187099E-1,-1.415187955E0
2.516115000E-1,1.116754889E0,-7.734982371E-1,-1.415376306E0
2.616355000E-1,9.005229473E-1,-1.051969528E0,-1.381637812E0
2.716595000E-1,6.640984416E-1,-1.320713401E0,-1.333378196E0
2.816845000E-1,2.937695086E-1,-1.290461183E0,-1.145567417E0
2.917085000E-1,-2.035507709E-1,-7.467656732E-1,-7.000429034E-1
3.017325000E-1,-6.126670241E-1,6.986600906E-2,-2.066507936E-2
3.117565000E-1,-6.915506721E-1,7.618841529E-1,8.510304093E-1
3.217805000E-1,-5.896011591E-1,7.998238206E-1,1.304593801E0
3.318055000E-1,-4.318262041E-1,2.458570302E-1,1.135079861E0
3.418295000E-1,-1.303340793E-1,-2.812350392E-1,6.306148171E-1
3.518535000E-1,1.835210472E-1,-7.604702711E-1,-1.121724993E-1
3.618775000E-1,4.243656993E-1,-1.090639710E0,-8.645602465E-1
3.719015000E-1,6.441979408E-1,-1.358628511E0,-1.531454921E0
3.819265000E-1,8.490255475E-1,-1.702986479E0,-2.075572491E0
3.919505000E-1,1.028190613E0,-2.174445868E0,-2.452614784E0
4.019745000E-1,1.065613151E0,-2.432115793E0,-2.647064686E0
4.119985000E-1,8.181940913E-1,-2.372833490E0,-2.576668978E0
4.220225000E-1,4.634054005E-1,-2.276773453E0,-2.366773844E0
4.320475000E-1,2.749745250E-1,-2.200278521E0,-2.231582642E0
4.420715000E-1,3.428918123E-1,-2.122943878E0,-2.161093712E0
4.520955000E-1,5.530881882E-1,-1.907538056E0,-2.131747484E0
4.621195000E-1,7.297170758E-1,-1.613670945E0,-2.162869215E0
4.721435000E-1,8.414276242E-1,-1.385691047E0,-2.268298388E0
4.821685000E-1,8.773416281E-1,-1.392003775E0,-2.440888405E0
4.921925000E-1,8.189622164E-1,-1.521005988E0,-2.636800528E0
5.022165000E-1,7.178301811E-1,-1.675420403E0,-2.799438000E0
5.122405000E-1,6.044322848E-1,-1.904849648E0,-2.760502577E0
5.222645000E-1,5.778689384E-1,-2.070409775E0,-2.483478308E0
5.322885000E-1,6.365370750E-1,-2.029109716E0,-2.026451588E0
5.423135000E-1,7.526855469E-1,-1.635017991E0,-1.595108628E0
5.523375000E-1,9.102861285E-1,-1.036693692E0,-1.351265907E0
5.623615000E-1,1.085319757E0,-4.713754058E-1,-1.221148014E0
5.723855000E-1,1.168990731E0,-2.538753152E-1,-1.122326016E0
5.824095000E-1,1.162675261E0,-3.811722696E-1,-1.043015361E0
5.924345000E-1,1.065956712E0,-6.946923733E-1,-9.858204126E-1
6.024585000E-1,1.005712628E0,-1.008389592E0,-9.289445877E-1
6.124825000E-1,1.043067694E0,-1.200724959E0,-8.933844566E-1
6.225065000E-1,1.118962288E0,-1.180826068E0,-8.241440058E-1
6.325305000E-1,1.198095441E0,-1.080095410E0,-8.030429482E-1
6.425555000E-1,1.171403050E0,-8.565055728E-1,-8.127998114E-1
6.525795000E-1,1.023200035E0,-7.214710116E-1,-8.936246634E-1
6.626035000E-1,8.692710996E-1,-7.553411126E-1,-1.053855300E0
6.726275000E-1,8.071174026E-1,-9.110912681E-1,-1.244083762E0
6.826515000E-1,8.421010375E-1,-1.127222419E0,-1.381367445E0
6.926765000E-1,9.399653077E-1,-1.253717542E0,-1.437772870E0
7.027005000E-1,1.061964512E0,-1.230718493E0,-1.437433839E0
7.127245000E-1,1.140455604E0,-1.154349446E0,-1.393711329E0
7.227479583E-1,1.128833771E0,-1.043657303E0,-1.369812846E0
7.327719583E-1,1.049548507E0,-8.764438033E-1,-1.360185742E0
7.427969584E-1,9.244673252E-1,-6.326535344E-1,-1.322520256E0
7.528209583E-1,8.713513613E-1,-5.507860780E-1,-1.302267790E0
7.628449583E-1,8.258093596E-1,-6.356655359E-1,-1.242983580E0
7.728689584E-1,7.163243890E-1,-7.886204720E-1,-1.120043278E0
7.828929584E-1,5.414327383E-1,-8.817290664E-1,-9.975104332E-1
7.929169583E-1,4.361955225E-1,-6.892525554E-1,-9.149916172E-1
8.029419584E-1,3.474656940E-1,-4.246715307E-1,-9.280985594E-1
8.129659583E-1,5.671294406E-2,-1.931919605E-1,-9.509686828E-1
8.229899583E-1,-2.841913700E-1,1.023690626E-1,-9.755792618E-1
8.330139584E-1,-4.547388554E-1,5.173140764E-1,-9.342078567E-1
8.430379584E-1,-5.901035070E-1,7.752321959E-1,-6.919529438E-1
8.530629583E-1,-9.535735846E-1,4.923818409E-1,-2.064094543E-1
8.630869584E-1,-1.417233467E0,-1.462881565E-1,3.598913252E-1
8.731109584E-1,-1.867899179E0,-7.119579315E-1,9.334731102E-1
8.831349583E-1,-2.475050449E0,-9.997289777E-1,1.579050303E0
8.931589584E-1,-3.191982746E0,-9.940841794E-1,2.143231869E0
9.031839584E-1,-3.395167351E0,-5.694718957E-1,2.551815510E0
9.132079583E-1,-3.094717979E0,6.290050596E-2,2.855009317E0
9.232319584E-1,-3.079939127E0,3.641676903E-1,3.129154921E0
9.332559584E-1,-3.038036823E0,7.498333454E-1,3.313495398E0
9.432799583E-1,-2.499722481E0,1.401798368E0,3.331222773E0
9.533049584E-1,-1.933985353E0,1.617455840E0,3.105624437E0
9.633289584E-1,-1.732091665E0,1.354244709E0,2.798436165E0
9.733529583E-1,-1.739652872E0,1.332204700E0,2.549916983E0
9.833769583E-1,-1.765682459E0,1.617191911E0,2.393586636E0
9.934009584E-1,-1.848319769E0,1.865446448E0,2.368369579E0
1.003425958E0,-1.924832821E0,2.064709187E0,2.469775915E0
1.013449958E0,-1.914193749E0,2.283389807E0,2.648809671E0
1.023473958E0,-1.871815801E0,2.371891499E0,2.835359335E0
1.033497958E0,-1.855291367E0,2.206570148E0,2.935113907E0
1.043521958E0,-1.873358130E0,1.643042684E0,2.929318428E0
1.053546958E0,-1.884309292E0,9.064450860E-1,2.785762787E0
1.063570958E0,-1.841485023E0,4.128206968E-1,2.539845467E0
1.073594958E0,-1.689841151E0,3.417925835E-1,2.287835360E0
1.083618958E0,-1.403374672E0,7.358731031E-1,2.142064333E0
1.093642958E0,-1.042202115E0,1.363434196E0,2.142151117E0
1.103667958E0,-7.560386062E-1,2.028608084E0,2.181379080E0
1.113691958E0,-6.186690331E-1,2.562656164E0,2.134524107E0
1.123715958E0,-6.131919026E-1,2.752850771E0,2.023893118E0
1.133739958E0,-6.613133550E-1,2.835410595E0,1.875268102E0
1.143763958E0,-6.518242955E-1,2.866059303E0,1.697774529E0
1.153787958E0,-5.474693775E-1,2.794586182E0,1.545517087E0
1.163812958E0,-3.794314861E-1,2.802809000E0,1.427405715E0
1.173836958E0,-2.008585185E-1,2.951430082E0,1.248639464E0
1.183860958E0,4.982809722E-2,2.794758081E0,1.003598809E0
1.193884958E0,4.201134741E-1,2.292471886E0,6.828683019E-1
1.203908958E0,8.560878038E-1,1.602716327E0,2.145542353E-1
1.213933958E0,1.286997080E0,1.149337411E0,-3.543704450E-1
1.223957958E0,1.732667089E0,9.914981127E-1,-9.193714261E-1
1.233981958E0,2.303677797E0,9.395236373E-1,-1.344655156E0
1.244005958E0,2.817327738E0,6.183802485E-1,-1.643710494E0
1.254029958E0,2.956435680E0,4.322008193E-1,-1.963861585E0
1.264054958E0,2.408109188E0,7.931742072E-1,-2.536886215E0
1.274078958E0,6.336370707E-1,9.148612022E-1,-2.317291737E0
1.284102958E0,2.030628093E-4,-1.302229524E0,-5.638716817E-1
1.294126958E0,8.450392485E-1,-3.364538670E0,8.815238476E-1
1.304150958E0,8.049561977E-1,-3.362097502E0,1.400206089E0
1.314175958E0,-1.062012687E-1,-2.757646441E-1,1.258791685E0
1.324199958E0,-9.233664274E-1,2.710426331E0,1.258816123E0
1.334223958E0,-1.273984671E0,2.241798162E0,1.128295422E0
1.344247958E0,-8.551295400E-1,1.481386721E-1,8.318938613E-1
1.354271958E0,1.471463293E-1,-1.439403772E0,3.751306236E-1
1.364295958E0,1.327714920E0,-2.567273140E0,-5.795409083E-1
1.374320958E0,2.062350273E0,-3.141264200E0,-1.801365137E0
1.384344958E0,1.731227636E0,-2.269721270E0,-2.556988716E0
1.394368958E0,-1.761312634E-1,-2.815397084E-1,-2.668712854E0
1.404392958E0,-1.338075161E0,4.508367777E-1,-2.096040010E0
1.414416958E0,-1.022736907E0,4.624146223E-1,-1.266292691E0
1.424441958E0,-2.705956809E-2,-7.202225327E-1,-7.246103287E-1
1.434465958E0,9.532585144E-1,-2.211959839E0,-6.512157321E-1
1.444489958E0,1.702562571E0,-2.971734047E0,-1.054342389E0
1.454513958E0,2.179039240E0,-3.190089464E0,-1.627230406E0
1.464537958E0,2.380074739E0,-3.028016090E0,-2.138736725E0
1.474562958E0,2.247225523E0,-2.578723669E0,-2.535503864E0
1.484586958E0,1.981453896E0,-2.375361919E0,-2.891695976E0
1.494610958E0,1.624009848E0,-2.472436428E0,-3.190533400E0
1.504634958E0,1.149310112E0,-2.380642891E0,-3.350163460E0
1.514658958E0,8.650615811E-1,-1.728913903E0,-3.212558270E0
1.524683958E0,9.998190403E-1,-6.291171312E-1,-2.784008980E0
1.534707958E0,1.402301311E0,4.214833975E-1,-2.195192337E0
1.544731958E0,1.767862082E0,8.081049323E-1,-1.611123443E0
1.554755958E0,1.887360573E0,5.497439504E-1,-1.211013079E0
1.564779958E0,1.805231810E0,-6.611633301E-2,-9.700228572E-1
1.574804958E0,1.650437713E0,-6.347981691E-1,-8.871319890E-1
1.584828958E0,1.552827358E0,-9.550651312E-1,-9.321023226E-1
1.594852958E0,1.580778122E0,-1.067236900E0,-9.986414313E-1
1.604876958E0,1.714455247E0,-1.039075613E0,-1.039256930E0
1.614900958E0,1.886980414E0,-8.182981610E-1,-1.074563265E0
1.624925958E0,1.946258187E0,-4.262673259E-1,-1.168945789E0
1.634949958E0,1.844144344E0,-8.745569736E-2,-1.335865259E0
1.644973958E0,1.642488360E0,-2.573045902E-3,-1.532616258E0
1.654997958E0,1.409644008E0,-1.004599258E-1,-1.703038573E0
1.665021958E0,1.207709551E0,-2.900224328E-1,-1.818131924E0
1.675046958E0,1.035647273E0,-5.027117729E-1,-1.863191247E0
1.685070958E0,9.209890962E-1,-6.888762712E-1,-1.836346269E0
1.695094958E0,8.857469559E-1,-8.050859571E-1,-1.750713587E0
1.705118958E0,8.970158100E-1,-9.547173381E-1,-1.568854690E0
1.715143458E0,8.491572142E-1,-1.204858422E0,-1.306645989E0
1.725167458E0,7.040967345E-1,-1.471991897E0,-1.004869580E0
1.735192458E0,5.137830377E-1,-1.560806155E0,-7.339597344E-1
1.745216458E0,3.137521446E-1,-1.348081350E0,-5.360695720E-1
1.755240458E0,5.874303728E-2,-9.611259103E-1,-4.960121810E-1
1.765264458E0,-3.209968209E-1,-3.959940970E-1,-5.061436296E-1
1.775288458E0,-6.422576308E-1,3.145228922E-1,-5.156471133E-1
1.785313458E0,-8.409669995E-1,1.025130987E0,-4.614898562E-1
1.795337458E0,-8.942965269E-1,1.164216995E0,-2.350820303E-1
1.805361458E0,-1.093134165E0,3.821797073E-1,2.818504572E-1
1.815385458E0,-1.705235958E0,-7.257302403E-1,9.222173691E-1
1.825409458E0,-2.421229124E0,-1.244770169E0,1.410799503E0
1.835434458E0,-2.975504160E0,-9.410268068E-1,1.731328011E0
1.845458458E0,-3.397456646E0,-6.547634006E-1,2.086255550E0
1.855482458E0,-3.691527367E0,-8.487719893E-1,2.535068274E0
1.865506458E0,-3.567731619E0,-8.062178493E-1,2.940959454E0
1.875530458E0,-2.871209860E0,-8.698940277E-2,3.155507565E0
1.885555458E0,-2.065460682E0,1.054686546E0,3.330263853E0
1.895579458E0,-1.617274761E0,1.506300807E0,3.390610218E0
1.905603458E0,-1.575793624E0,8.386865258E-1,3.224749088E0
1.915627458E0,-1.696779490E0,2.566479146E-1,3.135236502E0
1.925651458E0,-1.649396539E0,4.453416169E-1,3.282672405E0
1.935676458E0,-1.325056076E0,1.212987423E0,3.559984207E0
1.945700458E0,-9.670419693E-1,1.943862200E0,3.793406487E0
1.955724458E0,-8.647571802E-1,2.135883331E0,3.873406410E0
1.965748458E0,-9.982805252E-1,1.880350590E0,3.809031487E0
1.975772458E0,-1.120718598E0,1.418488622E0,3.621489286E0
1.985797458E0,-1.071020126E0,9.790787697E-1,3.419803619E0
1.995821458E0,-1.005813718E0,5.821170211E-1,3.162542343E0
2.005845458E0,-1.088044405E0,4.152601361E-1,2.818490982E0
2.015869458E0,-1.187012792E0,5.232446194E-1,2.502605677E0
2.025893458E0,-1.243978620E0,1.014941692E0,2.277694941E0
2.035917458E0,-1.275296569E0,1.513160110E0,2.066637039E0
2.045942458E0,-1.222730279E0,1.776370168E0,1.840193510E0
2.055966458E0,-1.092549920E0,1.946462750E0,1.594161391E0
2.065990458E0,-8.693332672E-1,2.470183372E0,1.440618753E0
2.076014458E0,-7.056740522E-1,3.039870024E0,1.332628131E0
2.086038458E0,-6.160926223E-1,3.501341581E0,1.256980658E0
2.096063458E0,-5.163785815E-1,3.954298496E0,1.205444694E0
2.106087458E0,-4.148688316E-1,4.101314545E0,1.110138297E0
2.116111458E0,-3.142620623E-1,3.828936338E0,9.449594617E-1
2.126135458E0,-1.433988959E-1,3.215096235E0,7.708154321E-1
2.136159458E0,8.304063231E-2,2.293032885E0,5.849581957E-1
2.146184458E0,4.287811518E-1,1.258395195E0,3.670822978E-1
2.156208458E0,8.562614322E-1,3.153833747E-1,1.080201045E-1
2.166232458E0,1.244000554E0,-2.022235692E-1,-2.506540716E-1
2.176256458E0,1.558922529E0,-2.941337824E-1,-7.765567303E-1
2.186280458E0,1.934408188E0,-1.469470114E-1,-1.282078743E0
2.196305458E0,2.402601242E0,2.284329981E-1,-1.630761981E0
2.206329458E0,2.731885910E0,6.755806804E-1,-1.835024357E0
2.216353458E0,2.624300003E0,1.495705485E0,-2.250822306E0
2.226377458E0,1.513892055E0,2.224676132E0,-2.854432821E0
2.236401458E0,-5.619251728E-1,1.250266075E0,-2.146677256E0
2.246426458E0,-6.238146424E-1,-1.764026642E0,-1.932108849E-1
2.256450458E0,3.165470362E-1,-3.971234322E0,1.427771688E0
2.266474458E0,5.324833393E-1,-3.644288540E0,2.154382229E0
2.276498458E0,4.068109766E-2,-3.090874255E-1,2.001107454E0
2.286522458E0,-7.791683674E-1,3.193458557E0,1.467732310E0
2.296546458E0,-1.257023096E0,3.177544832E0,9.388143420E-1
2.306571458E0,-8.510851860E-1,1.039300561E0,4.435159266E-1
2.316595458E0,2.150205523E-1,-9.786522388E-1,8.023757488E-2
2.326619458E0,1.520089984E0,-2.132214308E0,-3.488403559E-1
2.336643458E0,2.655502796E0,-2.879765987E0,-1.149608731E0
2.346667458E0,3.084747314E0,-2.831135035E0,-1.998469591E0
2.356692458E0,1.844816566E0,7.231319547E-1,-2.865643501E0
2.366716458E0,-1.970158815E-1,4.977763176E0,-3.796144485E0
2.376740458E0,-1.481009007E0,3.288830757E0,-4.148413181E0
2.386764458E0,-1.590410352E0,1.260171682E-1,-2.816764593E0
2.396788458E0,-5.324805975E-1,-1.715936065E0,-7.905128002E-1
2.406813458E0,7.154770494E-1,-2.622554064E0,2.337174714E-1
2.416837458E0,1.459380507E0,-2.360273123E0,3.033578098E-1
2.426861458E0,1.786553979E0,-2.065748692E0,-9.516601264E-2
2.436885458E0,1.940813303E0,-2.212556124E0,-6.568035483E-1
2.446909458E0,1.898396611E0,-2.425439119E0,-1.191047430E0
2.456934458E0,1.636341810E0,-2.307376623E0,-1.609112859E0
2.466958458E0,1.487204790E0,-2.171673059E0,-1.956339598E0
2.476982458E0,1.449566126E0,-2.258828878E0,-2.338522673E0
2.487006458E0,1.316698313E0,-2.255121708E0,-2.619588614E0
2.497030458E0,1.180015564E0,-1.771229982E0,-2.506828547E0
2.507055458E0,1.161759257E0,-7.989093065E-1,-1.983146429E0
2.517079458E0,1.395683408E0,-7.989902049E-3,-1.462333560E0
2.527103458E0,1.732715368E0,3.864724040E-1,-1.191841006E0
2.537127458E0,1.971830130E0,4.585772455E-1,-1.068999767E0
2.547151458E0,2.051795959E0,2.333132625E-1,-1.015358925E0
2.557175458E0,2.028224230E0,-1.805097461E-1,-9.735480547E-1
2.567200458E0,1.996612787E0,-5.821528435E-1,-9.151955247E-1
2.577224458E0,1.940761209E0,-9.167137742E-1,-8.868852854E-1
2.587248458E0,1.872760415E0,-1.351194859E0,-9.173771143E-1
2.597272458E0,1.744823575E0,-1.689083457E0,-9.853529930E-1
2.607296458E0,1.559221148E0,-1.791901350E0,-1.073470116E0
2.617321458E0,1.386520147E0,-1.617139459E0,-1.173401952E0
2.627345458E0,1.289120436E0,-1.227551699E0,-1.280792832E0
2.637369458E0,1.244849682E0,-6.578084230E-1,-1.394569635E0
2.647393458E0,1.189515352E0,-8.385937661E-2,-1.488337159E0
2.657417458E0,1.088382602E0,2.592545748E-1,-1.531916142E0
2.667442458E0,9.712706208E-1,1.473850161E-1,-1.535982966E0
2.677466458E0,8.827293515E-1,-2.615851760E-1,-1.473284721E0
2.687490458E0,8.838247061E-1,-7.637704611E-1,-1.327699780E0
2.697514458E0,9.487230182E-1,-1.263961196E0,-1.115039468E0
2.707538458E0,9.711568356E-1,-1.659582376E0,-9.117372632E-1
2.717563083E0,8.775813580E-1,-1.857648015E0,-8.020973206E-1
2.727587083E0,6.387968659E-1,-1.719336152E0,-7.628366351E-1
2.737611083E0,3.080157340E-1,-1.199815989E0,-7.379220128E-1
2.747635083E0,3.166227043E-2,-4.202387035E-1,-7.029761672E-1
2.757659083E0,-1.527962536E-1,9.302381426E-2,-6.203635931E-1
2.767684083E0,-4.011451900E-1,9.131005406E-2,-4.448406100E-1
2.777708083E0,-6.306388378E-1,-8.849433064E-2,-2.179414034E-1
2.787732083E0,-7.481827736E-1,-1.490658075E-1,-1.234589331E-2
2.797756083E0,-8.556282520E-1,-1.365452260E-1,1.800858676E-1
2.807780083E0,-9.920065999E-1,-3.959369063E-1,4.179306328E-1
2.817805083E0,-1.398349881E0,-1.081928134E0,7.098591328E-1
2.827829083E0,-2.054896832E0,-1.914034724E0,9.568774700E-1
2.837853083E0,-2.527049303E0,-2.256468058E0,1.094061136E0
2.847877083E0,-2.759155273E0,-1.931683540E0,1.154534817E0
2.857901083E0,-2.954543352E0,-1.664836407E0,1.314655185E0
2.867925083E0,-3.145697117E0,-1.716359735E0,1.488401890E0
2.877950083E0,-3.051272631E0,-1.526732564E0,1.672771692E0
2.887974083E0,-2.669789314E0,-8.629279733E-1,1.902798891E0
2.897998083E0,-2.300555468E0,1.150127426E-1,2.223995447E0
2.908022083E0,-2.067048311E0,1.397804141E0,2.606631756E0
2.918046083E0,-2.005599499E0,2.436277151E0,2.942978621E0
2.928071083E0,-1.865722299E0,2.692903280E0,3.222900629E0
2.938095083E0,-1.507241726E0,2.291843653E0,3.550082684E0
2.948119083E0,-1.099485874E0,1.455596089E0,3.902650118E0
2.958143083E0,-8.541880250E-1,2.743187547E-1,4.193294048E0
2.968167083E0,-8.136878610E-1,-8.135951161E-1,4.179503441E0
2.978192083E0,-8.639954925E-1,-1.089963794E0,3.803377867E0
2.988216083E0,-8.954932690E-1,-1.148345992E-1,3.145317793E0
2.998240083E0,-8.474373221E-1,1.642705560E0,2.386618853E0
3.008264083E0,-8.051024079E-1,2.840835094E0,1.749240041E0
3.018288083E0,-8.121967912E-1,2.712407351E0,1.420883656E0
3.028313083E0,-8.392925262E-1,1.806846261E0,1.522233725E0
3.038337083E0,-8.393868208E-1,8.952802420E-1,1.991110921E0
3.048361083E0,-8.446131349E-1,8.114666343E-1,2.367410898E0
3.058385083E0,-8.599545360E-1,1.417684078E0,2.335482359E0
3.068409083E0,-9.137207866E-1,2.191648960E0,2.100420237E0
3.078434083E0,-9.883678555E-1,2.826801062E0,1.848027229E0
3.088458083E0,-1.098120093E0,3.151534557E0,1.609243870E0
3.098482083E0,-1.167653680E0,3.270375729E0,1.458127856E0
3.108506083E0,-1.152223945E0,3.281773806E0,1.408612609E0
3.118530083E0,-1.017585516E0,3.076249361E0,1.333540201E0
3.128554083E0,-7.595751882E-1,2.701901674E0,1.177341700E0
3.138579083E0,-4.801685512E-1,2.249610424E0,9.924077988E-1
3.148603083E0,-2.647499740E-1,1.799152374E0,8.187785149E-1
3.158627083E0,-6.847901642E-2,1.393742323E0,6.442825794E-1
3.168651083E0,1.267945915E-1,1.143917322E0,4.481245875E-1
3.178675083E0,3.358410299E-1,9.935054183E-1,2.621094286E-1
3.188700083E0,5.662629008E-1,8.620504737E-1,1.015510410E-1
3.198724083E0,7.878962159E-1,8.538644314E-1,-7.372197509E-2
3.208748083E0,9.914052486E-1,9.363569021E-1,-2.905074954E-1
3.218772083E0,1.165000439E0,1.099822521E0,-5.005629659E-1
3.228796083E0,1.322840929E0,1.291934252E0,-7.097879648E-1
3.238821083E0,1.465191841E0,1.446775198E0,-8.764102459E-1
3.248845083E0,1.579474330E0,1.547800303E0,-1.017883897E0
3.258869083E0,1.651697874E0,1.582043529E0,-1.118276238E0
3.268893083E0,1.707948565E0,1.533354044E0,-1.254616976E0
3.278917083E0,1.755953908E0,1.353970170E0,-1.331125855E0
3.288942083E0,1.738374949E0,9.406823516E-1,-1.270055771E0
3.298966083E0,1.685617685E0,9.831840545E-2,-1.025487065E0
3.308990083E0,1.600248098E0,-1.231552839E0,-7.208676338E-1
3.319014083E0,1.193606257E0,-2.612868071E0,-4.334492087E-1
3.329038083E0,3.102768660E-1,-3.106659889E0,-7.074169815E-2
3.339063083E0,-6.053416133E-1,-1.682267904E0,5.849663615E-1
3.349087083E0,-1.053038001E0,1.136009574E0,1.180648088E0
3.359111083E0,-1.067330837E0,2.419736862E0,1.157742739E0
3.369135083E0,-8.072490096E-1,2.302088022E0,8.760947585E-1
3.379159083E0,-3.860610425E-1,1.562283158E0,5.767117739E-1
